# PlotEOS table
# Tabulated(filename=SFHxapp_ColdTable.dat;)
# slice Temp = 0
# Units are geometric, with Msun=1.
# Conversion to cgs: rhoscale=6.177e17, Energypermassscale=8.989e20, Pscale=5.552e38
# [1] rho
# [2] eps, specific energy (E/rho)
# [3] P
# [4] dP/drho
# [5] h, specific enthalpy (1+eps+P/rho)
# [6] cs, adiabatic relativistic sound speed (nonrelcs/sqrt(h))
1e-14  0.01023258386962232  4.280031938875976e-27  8.560036766491058e-13  1.01023258387005  9.158875081735687e-07  
1.028044732093308e-14  0.0102325838696343  4.523463073055883e-27  8.80018397131929e-13  1.010232583870074  9.286365482800479e-07  
1.056875971184805e-14  0.01023258386964661  4.780739235587559e-27  9.046948474376518e-13  1.010232583870099  9.415739798858493e-07  
1.086515774652537e-14  0.01023258386965924  5.052648392982761e-27  9.300632640353131e-13  1.010232583870124  9.546866304852905e-07  
1.116986818467825e-14  0.01023258386967239  5.340022831341115e-27  9.561430513999389e-13  1.01023258387015  9.679767779263434e-07  
1.148312414543511e-14  0.01023258386968563  5.643741777404528e-27  9.829671496662716e-13  1.010232583870177  9.814572503805007e-07  
1.180516528568803e-14  0.01023258386969983  5.964734931127535e-27  1.010530355332138e-12  1.010232583870205  9.951280029746007e-07  
1.213623798344242e-14  0.01023258386971363  6.303985093531003e-27  1.038866476210658e-12  1.010232583870233  1.00898385781805e-06  
1.247659552630868e-14  0.01023258386972838  6.662530620402225e-27  1.068011438261847e-12  1.010232583870262  1.023028500364231e-06  
1.282649830528063e-14  0.01023258386974316  7.041468227251908e-27  1.097959319266033e-12  1.010232583870292  1.037281082389837e-06  
1.318621401394749e-14  0.01023258386975884  7.441958521563512e-27  1.128746984471774e-12  1.010232583870323  1.051726697431487e-06  
1.355601785329366e-14  0.01023258386977455  7.865227363628122e-27  1.160397983477159e-12  1.010232583870355  1.066367854962346e-06  
1.393619274224144e-14  0.01023258386979069  8.31256976652998e-27  1.192952488066309e-12  1.010232583870387  1.081218260868788e-06  
1.432702953409829e-14  0.0102325838698075  8.785355028300326e-27  1.226403797499611e-12  1.010232583870421  1.0962787105073e-06  
1.472882723907505e-14  0.01023258386982472  9.285030725629767e-27  1.260793132309975e-12  1.010232583870455  1.111543081242187e-06  
1.514189325304352e-14  0.01023258386984234  9.813126260317677e-27  1.296164307288836e-12  1.01023258387049  1.127014989906933e-06  
1.556654359271059e-14  0.0102325838698608  1.037125690253356e-26  1.332509711156861e-12  1.010232583870527  1.142716413491852e-06  
1.600310313738702e-14  0.01023258386987942  1.096113212894761e-26  1.369874293898398e-12  1.010232583870564  1.158630495215818e-06  
1.645190587753661e-14  0.01023258386989841  1.158455748871898e-26  1.408286635824829e-12  1.010232583870603  1.174759999730189e-06  
1.69132951702965e-14  0.01023258386991818  1.22434404072531e-26  1.447795731054298e-12  1.010232583870642  1.191119556574936e-06  
1.738762400216251e-14  0.01023258386993874  1.293979763812698e-26  1.488392970883269e-12  1.010232583870683  1.207710972520895e-06  
1.787525525904232e-14  0.01023258386995961  1.367576133129821e-26  1.530128617038334e-12  1.010232583870725  1.224527041670694e-06  
1.837656200388172e-14  0.01023258386998079  1.445358415473204e-26  1.57305610894242e-12  1.010232583870767  1.241571260257945e-06  
1.889192776207664e-14  0.01023258387000292  1.527564511674778e-26  1.617165685298191e-12  1.010232583870811  1.258868806860936e-06  
1.942174681489028e-14  0.01023258387002576  1.614446213318389e-26  1.662512157482476e-12  1.010232583870857  1.276400631955866e-06  
1.996642450109793e-14  0.01023258387004907  1.706269456726331e-26  1.709130211002087e-12  1.010232583870904  1.294169781320283e-06  
2.052637752709248e-14  0.01023258387007285  1.803315186771336e-26  1.757079604047474e-12  1.010232583870951  1.312191854361651e-06  
2.110203428568597e-14  0.01023258387009773  1.905880438270946e-26  1.806349299643381e-12  1.010232583871001  1.33046986655998e-06  
2.169383518385182e-14  0.01023258387012302  2.014279257825071e-26  1.857000587809333e-12  1.010232583871052  1.348995371845878e-06  
2.230223297965941e-14  0.01023258387014894  2.12884344281446e-26  1.909098651169478e-12  1.010232583871103  1.36777168401978e-06  
2.292769312865649e-14  0.01023258387017568  2.249923378914502e-26  1.962630995362764e-12  1.010232583871157  1.38682760693676e-06  
2.357069413996723e-14  0.01023258387020301  2.377889934208482e-26  2.017664460899324e-12  1.010232583871212  1.406141626777629e-06  
2.423172794237601e-14  0.01023258387023156  2.513134801870946e-26  2.0742411427695e-12  1.010232583871269  1.425717099032745e-06  
2.491130026067786e-14  0.01023258387026065  2.656071786016787e-26  2.132433932853114e-12  1.010232583871327  1.445570639047801e-06  
2.560993100258462e-14  0.01023258387029048  2.807138370009987e-26  2.192228708161454e-12  1.010232583871387  1.465706697955251e-06  
2.63281546564802e-14  0.01023258387032124  2.966797116578575e-26  2.253700211462973e-12  1.010232583871448  1.486115411901934e-06  
2.706652070033236e-14  0.0102325838703527  3.135536726095454e-26  2.316895462271454e-12  1.010232583871511  1.506800324252579e-06  
2.782559402207126e-14  0.01023258387038549  3.313873275007971e-26  2.381895973690475e-12  1.010232583871576  1.52779288542255e-06  
2.860595535175739e-14  0.01023258387041871  3.502353000402904e-26  2.448685783149391e-12  1.010232583871643  1.549070268649276e-06  
2.940820170587067e-14  0.01023258387045321  3.701552827655689e-26  2.517348470388286e-12  1.010232583871712  1.570635685479713e-06  
3.023294684405776e-14  0.01023258387048852  3.912082249663121e-26  2.587972953732533e-12  1.010232583871782  1.592506812619523e-06  
3.108082173869058e-14  0.01023258387052461  4.134585606849685e-26  2.660541192626168e-12  1.010232583871855  1.614689797433105e-06  
3.195247505759214e-14  0.01023258387056191  4.369744213306011e-26  2.735144341807518e-12  1.010232583871929  1.637173157383661e-06  
3.28485736603004e-14  0.01023258387060039  4.618277867682672e-26  2.811839464727547e-12  1.010232583872006  1.659960796146925e-06  
3.376980310825095e-14  0.01023258387063979  4.880946696210736e-26  2.890725999466917e-12  1.010232583872085  1.683086696240899e-06  
3.47168681892656e-14  0.0102325838706803  5.158555222828737e-26  2.971783560710214e-12  1.010232583872166  1.706527028147191e-06  
3.569049345675222e-14  0.01023258387072189  5.451953204234436e-26  3.055114083305804e-12  1.010232583872249  1.730284677285831e-06  
3.669142378402494e-14  0.01023258387076476  5.762038364041783e-26  3.140826043255609e-12  1.010232583872335  1.75437842588766e-06  
3.772042493416994e-14  0.01023258387080887  6.089759708021999e-26  3.228896432442176e-12  1.010232583872423  1.778816416256893e-06  
3.877828414589461e-14  0.01023258387085419  6.436120752195434e-26  3.319436428660375e-12  1.010232583872514  1.803585320086389e-06  
3.986581073580439e-14  0.01023258387090046  6.802181676023493e-26  3.412515285334917e-12  1.010232583872607  1.828689438001492e-06  
4.098383671757253e-14  0.01023258387094853  7.189062065661987e-26  3.508254315309455e-12  1.010232583872703  1.854165474507614e-06  
4.213321743847289e-14  0.0102325838709977  7.597946861410587e-26  3.606627526405069e-12  1.010232583872801  1.879988629180724e-06  
4.331483223376394e-14  0.01023258387104816  8.030087675277643e-26  3.707759247944827e-12  1.010232583872902  1.906161361903682e-06  
4.45295850994266e-14  0.01023258387110008  8.48680676710355e-26  3.811781824684939e-12  1.010232583873006  1.932703602617083e-06  
4.577840538376616e-14  0.01023258387115366  8.969501862623184e-26  3.918665956366393e-12  1.010232583873113  1.959625830458923e-06  
4.706224849841272e-14  0.01023258387120884  9.479651053795381e-26  4.02854725146424e-12  1.010232583873223  1.986912614830892e-06  
4.838209664925957e-14  0.01023258387126515  1.001881586133966e-25  4.141509757140234e-12  1.010232583873336  2.014568693672185e-06  
4.973895958790057e-14  0.01023258387132321  1.058864531858738e-25  4.257701483996676e-12  1.010232583873452  2.042633695808258e-06  
5.113387538414331e-14  0.01023258387138274  1.1190884659589e-25  4.377089338702644e-12  1.010232583873571  2.071081898580454e-06  
5.256791122018419e-14  0.01023258387144438  1.182737739231008e-25  4.49982497540686e-12  1.010232583873694  2.09991522009159e-06  
5.404216420705904e-14  0.0102325838715074  1.250007107803422e-25  4.626069871592996e-12  1.01023258387382  2.129154777337802e-06  
5.555776222398878e-14  0.01023258387157221  1.321102432965332e-25  4.755786764286376e-12  1.01023258387395  2.158813777062506e-06  
5.711586478126424e-14  0.01023258387163897  1.39624142493467e-25  4.889141072923293e-12  1.010232583874084  2.188874396784596e-06  
5.871766390733262e-14  0.01023258387170741  1.475654077505585e-25  5.026234798593733e-12  1.010232583874221  2.219341856225832e-06  
6.036438506075864e-14  0.01023258387177815  1.559583276113362e-25  5.167248538305303e-12  1.010232583874362  2.250258923881572e-06  
6.205728806776488e-14  0.01023258387185047  1.648286066598832e-25  5.312140213615662e-12  1.010232583874507  2.281599023439475e-06  
6.379766808606283e-14  0.01023258387192475  1.742033980634937e-25  5.461094822166982e-12  1.010232583874655  2.313363395752685e-06  
6.558685659571422e-14  0.01023258387200138  1.841113875335119e-25  5.614309401416674e-12  1.010232583874809  2.345574380367512e-06  
6.742622241778349e-14  0.01023258387208031  1.945828949184756e-25  5.771736621183894e-12  1.010232583874966  2.378248357684892e-06  
6.9317172761554e-14  0.01023258387216102  2.05649987074843e-25  5.933578279413953e-12  1.010232583875128  2.411364786606397e-06  
7.126115430111731e-14  0.01023258387224435  2.173465394070241e-25  6.099958166552611e-12  1.010232583875294  2.444929417626884e-06  
7.32596542821523e-14  0.01023258387232979  2.297083264203804e-25  6.271096656624387e-12  1.010232583875465  2.478988387835439e-06  
7.53142016597436e-14  0.01023258387241794  2.427732069435592e-25  6.446940312611494e-12  1.010232583875641  2.513514359299925e-06  
7.742636826811277e-14  0.01023258387250828  2.565811750975461e-25  6.627714822802447e-12  1.010232583875822  2.548507738220447e-06  
7.959777002314978e-14  0.0102325838726012  2.711744822032861e-25  6.813660633776904e-12  1.010232583876008  2.583992117148679e-06  
8.183006815867406e-14  0.01023258387269661  2.865977841725124e-25  7.004717697630891e-12  1.010232583876199  2.619987558674297e-06  
8.412497049736119e-14  0.01023258387279512  3.028983127720443e-25  7.201132209217874e-12  1.010232583876396  2.656470434646314e-06  
8.648423275731709e-14  0.01023258387289576  3.201259625234107e-25  7.403054402819331e-12  1.010232583876597  2.693447080304868e-06  
8.890965989529167e-14  0.01023258387299978  3.383334255781679e-25  7.61075321110405e-12  1.010232583876805  2.730967244365854e-06  
9.140310748756223e-14  0.01023258387310645  3.575764620233415e-25  7.824160849289141e-12  1.010232583877019  2.769002946821596e-06  
9.39664831495471e-14  0.01023258387321634  3.779139795507808e-25  8.043552667054693e-12  1.010232583877238  2.807553576823885e-06  
9.660174799522646e-14  0.01023258387332915  3.994082103580394e-25  8.269222105764445e-12  1.010232583877464  2.846644003954869e-06  
9.931091813749781e-14  0.01023258387344501  4.221249248449738e-25  8.501093064279886e-12  1.010232583877696  2.886298552094723e-06  
1.020960662306048e-13  0.01023258387356428  4.461336914452023e-25  8.739465924424507e-12  1.010232583877934  2.926490090803095e-06  
1.049593230558227e-13  0.01023258387368664  4.715079989732266e-25  8.984523012848105e-12  1.010232583878179  2.96722559952578e-06  
1.079028791516186e-13  0.01023258387381268  4.983254575498844e-25  9.23659254602444e-12  1.010232583878431  3.008558696251934e-06  
1.109289864895223e-13  0.01023258387394229  5.266681929317662e-25  9.495588630499798e-12  1.01023258387869  3.050460910592801e-06  
1.140399601970031e-13  0.01023258387407537  5.566229708139744e-25  9.761847229838588e-12  1.010232583878956  3.092930403811063e-06  
1.1723818032866e-13  0.01023258387421204  5.882814533733552e-25  1.003572648825454e-11  1.01023258387923  3.135993338493918e-06  
1.205260936870841e-13  0.01023258387435309  6.21740508888062e-25  1.031713005611146e-11  1.010232583879512  3.179678958574316e-06  
1.239062156947918e-13  0.01023258387449775  6.57102605885413e-25  1.060642445624395e-11  1.010232583879801  3.223956163577464e-06  
1.273811323186478e-13  0.01023258387464634  6.944759848243587e-25  1.090383096327809e-11  1.010232583880098  3.268832642661567e-06  
1.309535020482665e-13  0.01023258387479919  7.339749574690782e-25  1.120975017712485e-11  1.010232583880404  3.31436615580966e-06  
1.346260579298911e-13  0.01023258387495664  7.757204819261601e-25  1.152407336538705e-11  1.010232583880719  3.360527931395222e-06  
1.38401609657313e-13  0.01023258387511812  8.198403562661865e-25  1.184721048019822e-11  1.010232583881042  3.407314659608402e-06  
1.422830457214355e-13  0.01023258387528417  8.664695903179738e-25  1.217959866932191e-11  1.010232583881374  3.454753802081444e-06  
1.46273335620113e-13  0.01023258387545512  9.157508539428759e-25  1.252111606153229e-11  1.010232583881716  3.502880271432064e-06  
1.503755321299735e-13  0.01023258387563059  9.678350748605719e-25  1.287220991765967e-11  1.010232583882067  3.551658470514499e-06  
1.545927736419478e-13  0.01023258387581114  1.022881678653151e-24  1.323314878088668e-11  1.010232583882428  3.601096870367168e-06  
1.589282865622976e-13  0.01023258387599661  1.081059034903652e-24  1.360442163609744e-11  1.010232583882799  3.65125766116551e-06  
1.633853877809864e-13  0.01023258387618754  1.14254529541773e-24  1.398589096633741e-11  1.01023258388318  3.702112002680712e-06  
1.679674872092653e-13  0.01023258387638356  1.207528695355721e-24  1.437805704502302e-11  1.010232583883573  3.753654834108922e-06  
1.726780903884352e-13  0.01023258387658518  1.276208091680813e-24  1.478145349443884e-11  1.010232583883976  3.805914910049668e-06  
1.775208011717636e-13  0.01023258387679246  1.348793611676387e-24  1.519592629388194e-11  1.01023258388439  3.858933661767947e-06  
1.824993244816151e-13  0.01023258387700571  1.425507559599529e-24  1.562202127151917e-11  1.010232583884817  3.912670402780771e-06  
1.876174691439123e-13  0.0102325838772243  1.50658475075636e-24  1.606006433555828e-11  1.010232583885254  3.967134465513023e-06  
1.928791508020778e-13  0.01023258387744985  1.592273176473384e-24  1.65106524059965e-11  1.010232583885705  4.022392774339188e-06  
1.982883949127076e-13  0.01023258387768129  1.682835225443142e-24  1.697361170887293e-11  1.010232583886168  4.078416703440561e-06  
2.038493398252464e-13  0.01023258387791935  1.778548151404888e-24  1.744955278729157e-11  1.010232583886644  4.135199119405031e-06  
2.095662399480431e-13  0.01023258387816383  1.879704852367275e-24  1.79391270826712e-11  1.010232583887133  4.192770049079315e-06  
2.154434690031887e-13  0.01023258387841565  1.986614808047332e-24  1.844214010271756e-11  1.010232583887637  4.251178406530934e-06  
2.214855233726359e-13  0.01023258387867442  2.099605454731216e-24  1.895925801706976e-11  1.010232583888154  4.310377749263049e-06  
2.276970255381685e-13  0.01023258387893991  2.219022648007368e-24  1.949087635318344e-11  1.010232583888685  4.370378358677848e-06  
2.340827276178294e-13  0.0102325838792135  2.34523165408772e-24  2.003772385065306e-11  1.010232583889232  4.43125221340095e-06  
2.406475150015422e-13  0.01023258387949452  2.478618928592179e-24  2.059958109705177e-11  1.010232583889794  4.49297124324794e-06  
2.473964100886817e-13  0.0102325838797832  2.619592841958384e-24  2.117719326968568e-11  1.010232583890372  4.555525873309199e-06  
2.543345761304648e-13  0.01023258388007999  2.768584806208919e-24  2.177135570823833e-11  1.010232583890966  4.618947364403795e-06  
2.614673211801097e-13  0.01023258388038556  2.926050628833254e-24  2.238182300139238e-11  1.010232583891576  4.683293206179648e-06  
2.688001021537607e-13  0.01023258388069943  3.09247259743561e-24  2.30094082584963e-11  1.010232583892204  4.748510450517877e-06  
2.763385290053167e-13  0.01023258388102182  3.268360117007755e-24  2.365459149840053e-11  1.010232583892849  4.814610424295708e-06  
2.840883690183307e-13  0.01023258388135382  3.454251188034208e-24  2.431826246438572e-11  1.010232583893513  4.881670496609986e-06  
2.920555512182745e-13  0.01023258388169472  3.650714995919538e-24  2.500014432795378e-11  1.010232583894195  4.949663561253306e-06  
3.002461709085555e-13  0.01023258388204515  3.858353034808918e-24  2.570114666344462e-11  1.010232583894896  5.018577179367996e-06  
3.086664943337275e-13  0.0102325838824053  4.077800735531555e-24  2.642224057779045e-11  1.010232583895616  5.088443786563044e-06  
3.173229634734973e-13  0.0102325838827762  4.309729419084859e-24  2.716311663022304e-11  1.010232583896358  5.159330685650183e-06  
3.262222009711673e-13  0.01023258388315715  4.554849457194329e-24  2.792476736225649e-11  1.01023258389712  5.231177580379382e-06  
3.353710152002929e-13  0.01023258388354851  4.813911144082953e-24  2.870777533263043e-11  1.010232583897902  5.303996949412974e-06  
3.447764054734471e-13  0.01023258388395131  5.08770690077796e-24  2.951322695366552e-11  1.010232583898708  5.377871904689058e-06  
3.544455673970436e-13  0.01023258388436503  5.377075042767486e-24  3.034077320131711e-11  1.010232583899535  5.452776789554116e-06  
3.64385898376354e-13  0.01023258388479045  5.682901519091442e-24  3.119152440777617e-11  1.010232583900386  5.528695818115226e-06  
3.746050032748997e-13  0.0102325838852277  6.006122262281385e-24  3.206666639310546e-11  1.010232583901261  5.605662516828087e-06  
3.851107002325569e-13  0.01023258388567756  6.347726004123923e-24  3.296580924247666e-11  1.01023258390216  5.683755402200872e-06  
3.959110266468467e-13  0.0102325838861399  6.708759067009412e-24  3.389016462742795e-11  1.010232583903085  5.762905883303022e-06  
4.070142453219439e-13  0.0102325838866148  7.090326546949384e-24  3.484043955098561e-11  1.010232583904035  5.843127707702298e-06  
4.184288507901576e-13  0.01023258388710347  7.493595601493934e-24  3.5817960681819e-11  1.010232583905012  5.924510098509148e-06  
4.3016357581068e-13  0.01023258388760597  7.919800928842151e-24  3.68222882607382e-11  1.010232583906017  6.007029422913475e-06  
4.422273980505897e-13  0.01023258388812237  8.37024745630462e-24  3.785477780626577e-11  1.01023258390705  6.090665996302685e-06  
4.546295469532409e-13  0.0102325838886527  8.846313729145278e-24  3.891687745035041e-11  1.010232583908111  6.175454322855004e-06  
4.673795107992464e-13  0.01023258388919902  9.349455964844174e-24  4.000809618436773e-11  1.010232583909203  6.2614857165929e-06  
4.804870439655124e-13  0.01023258388976  9.881215316061698e-24  4.112991331547359e-11  1.010232583910325  6.348682228871482e-06  
4.939621743878326e-13  0.01023258389033634  1.044321946054504e-23  4.228318687439699e-11  1.010232583911478  6.437059005193825e-06  
5.078152112327671e-13  0.01023258389092936  1.103718750624599e-23  4.346953705914088e-11  1.010232583912664  6.52671176374127e-06  
5.220567527846986e-13  0.01023258389153929  1.166493795489154e-23  4.46884101361209e-11  1.010232583913883  6.617619571562325e-06  
5.366976945540476e-13  0.01023258389216565  1.232839285410702e-23  4.594146109069115e-11  1.010232583915136  6.709758216091551e-06  
5.517492376129118e-13  0.01023258389280952  1.302958267938951e-23  4.723045855275084e-11  1.010232583916425  6.803163031861814e-06  
5.672228971644549e-13  0.01023258389347218  1.377065216478183e-23  4.855478457352357e-11  1.01023258391775  6.897939920298406e-06  
5.831305113526219e-13  0.01023258389415336  1.455387131155853e-23  4.991624536862686e-11  1.010232583919112  6.994000381625657e-06  
