# PlotEOS table
# Tabulated(filename=input/LS220app_ColdTable.dat;)
# slice Temp = 0
# Units are geometric, with Msun=1.
# Conversion to cgs: rhoscale=6.177e17, Energypermassscale=8.989e20, Pscale=5.552e38
# [1] rho
# [2] eps, specific energy (E/rho)
# [3] P
# [4] dP/drho
# [5] h, specific enthalpy (1+eps+P/rho)
# [6] cs, adiabatic relativistic sound speed (nonrelcs/sqrt(h))
1e-14  0.001013942148982214  9.646929797262343e-28  1.92939297673804e-13  1.001013942149079  4.38806022140574e-07  
1.028044732093308e-14  0.00101394214898506  1.01956082465276e-27  1.983492049965209e-13  1.001013942149084  4.44916697202357e-07  
1.056875971184805e-14  0.001013942148987608  1.077549356753917e-27  2.039108039248132e-13  1.00101394214909  4.511118758474268e-07  
1.086515774652537e-14  0.001013942148990522  1.13883607117814e-27  2.096283478639563e-13  1.001013942149095  4.573927169904118e-07  
1.116986818467825e-14  0.001013942148993577  1.203608553974405e-27  2.155135210411808e-13  1.001013942149101  4.637604926775331e-07  
1.148312414543511e-14  0.001013942148996551  1.272064876306028e-27  2.215563812976679e-13  1.001013942149107  4.702202358344152e-07  
1.180516528568803e-14  0.001013942148999661  1.344414745451625e-27  2.277686804285395e-13  1.001013942149114  4.767693352811901e-07  
1.213623798344242e-14  0.001013942149002907  1.420879614195905e-27  2.341551694580523e-13  1.00101394214912  4.834090169040599e-07  
1.247659552630868e-14  0.001013942149006063  1.501693530991635e-27  2.407207326245619e-13  1.001013942149126  4.901405232400559e-07  
1.282649830528063e-14  0.00101394214900957  1.587103856377459e-27  2.474703911273144e-13  1.001013942149133  4.969651137004421e-07  
1.318621401394749e-14  0.001013942149012984  1.677372020143101e-27  2.544093069555228e-13  1.00101394214914  5.038840647970423e-07  
1.355601785329366e-14  0.001013942149016522  1.772774186253537e-27  2.6155175048417e-13  1.001013942149147  5.109007966670192e-07  
1.393619274224144e-14  0.001013942149020181  1.873602336566191e-27  2.688854776130064e-13  1.001013942149155  5.180168484120431e-07  
1.432702953409829e-14  0.001013942149023961  1.980165227357137e-27  2.764248384548549e-13  1.001013942149162  5.252313299445656e-07  
1.472882723907505e-14  0.001013942149027856  2.092789032899074e-27  2.841755989153688e-13  1.00101394214917  5.325455915471933e-07  
1.514189325304352e-14  0.001013942149031865  2.211818479434441e-27  2.921436865681286e-13  1.001013942149178  5.399610018416158e-07  
1.556654359271059e-14  0.001013942149035984  2.337617900375974e-27  3.00335195209308e-13  1.001013942149186  5.474789480346288e-07  
1.600310313738702e-14  0.00101394214904021  2.470572351525629e-27  3.08756389500109e-13  1.001013942149195  5.551008361673946e-07  
1.645190587753661e-14  0.00101394214904454  2.611088396407744e-27  3.174246995568418e-13  1.001013942149203  5.628326603613892e-07  
1.69132951702965e-14  0.001013942149048971  2.759596461748924e-27  3.263250458234928e-13  1.001013942149212  5.706716989703237e-07  
1.738762400216251e-14  0.001013942149053499  2.916551131297772e-27  3.354749524030271e-13  1.001013942149221  5.786191621718563e-07  
1.787525525904232e-14  0.001013942149058343  3.082432821947925e-27  3.448814168745863e-13  1.001013942149231  5.866765372673894e-07  
1.837656200388172e-14  0.001013942149063055  3.257749275510837e-27  3.545516330154481e-13  1.00101394214924  5.948453317568271e-07  
1.889192776207664e-14  0.001013942149068075  3.443037112904539e-27  3.644929963392154e-13  1.00101394214925  6.031270736095059e-07  
1.942174681489028e-14  0.001013942149073178  3.638863238639804e-27  3.747262505649699e-13  1.001013942149261  6.115254444205768e-07  
1.996642450109793e-14  0.00101394214907836  3.845826895208157e-27  3.852332641079827e-13  1.001013942149271  6.200431041709604e-07  
2.052637752709248e-14  0.001013942149083838  4.064561897434738e-27  3.960348872033301e-13  1.001013942149282  6.286785818988664e-07  
2.110203428568597e-14  0.001013942149089387  4.295737763223638e-27  4.071393805802734e-13  1.001013942149293  6.374334938756553e-07  
2.169383518385182e-14  0.001013942149095224  4.540062090991251e-27  4.185552365910979e-13  1.001013942149305  6.463094783246275e-07  
2.230223297965941e-14  0.001013942149100901  4.798282725612019e-27  4.302911857097784e-13  1.001013942149316  6.553081957155161e-07  
2.292769312865649e-14  0.001013942149106858  5.071190047570039e-27  4.423562031952083e-13  1.001013942149328  6.644313290628486e-07  
2.357069413996723e-14  0.001013942149113089  5.359618634947828e-27  4.547756295268191e-13  1.00101394214934  6.736855985338173e-07  
2.423172794237601e-14  0.001013942149119591  5.664451880525899e-27  4.675271330067637e-13  1.001013942149353  6.830686482541083e-07  
2.491130026067786e-14  0.001013942149126136  5.986622946210285e-27  4.80636179205046e-13  1.001013942149366  6.925814794905343e-07  
2.560993100258462e-14  0.001013942149132941  6.327117954289058e-27  4.94112793449647e-13  1.00101394214938  7.022258725243852e-07  
2.63281546564802e-14  0.001013942149139779  6.686979115260673e-27  5.079672821571109e-13  1.001013942149394  7.120036318146106e-07  
2.706652070033236e-14  0.001013942149146867  7.067307918038612e-27  5.222102407306993e-13  1.001013942149408  7.219165863221425e-07  
2.782559402207126e-14  0.001013942149154199  7.469268098119796e-27  5.368718314129007e-13  1.001013942149423  7.319686495076901e-07  
2.860595535175739e-14  0.00101394214916177  7.894089488951336e-27  5.51925203044861e-13  1.001013942149438  7.421639838783321e-07  
2.940820170587067e-14  0.001013942149169574  8.343073190070902e-27  5.674006590010162e-13  1.001013942149453  7.525003434002471e-07  
3.023294684405776e-14  0.001013942149177383  8.817593479792836e-27  5.833100342806634e-13  1.001013942149469  7.629796627299741e-07  
3.108082173869058e-14  0.001013942149185635  9.319102802013967e-27  5.996654957359622e-13  1.001013942149485  7.736039028005977e-07  
3.195247505759214e-14  0.001013942149194102  9.849136212112056e-27  6.164795513633284e-13  1.001013942149502  7.843750511742404e-07  
3.28485736603004e-14  0.001013942149202554  1.040931607576967e-26  6.33765059889931e-13  1.001013942149519  7.952951223992306e-07  
3.376980310825095e-14  0.001013942149211431  1.100135558827496e-26  6.515588728230174e-13  1.001013942149537  8.063716162627013e-07  
3.47168681892656e-14  0.001013942149220724  1.16270677824692e-26  6.698279171060795e-13  1.001013942149556  8.176027921268048e-07  
3.569049345675222e-14  0.001013942149230206  1.228836824377643e-26  6.886092093407139e-13  1.001013942149575  8.289893132067663e-07  
3.669142378402494e-14  0.001013942149239646  1.298728112494706e-26  7.079171126509883e-13  1.001013942149594  8.405333104771258e-07  
3.772042493416994e-14  0.001013942149249703  1.372594570763837e-26  7.277663928362672e-13  1.001013942149614  8.522369438531503e-07  
3.877828414589461e-14  0.001013942149259926  1.450662295075365e-26  7.481722297939808e-13  1.001013942149634  8.641024025790734e-07  
3.986581073580439e-14  0.001013942149270307  1.533170176654214e-26  7.691784935802284e-13  1.001013942149655  8.76133780606996e-07  
4.098383671757253e-14  0.001013942149281282  1.620370614018599e-26  7.907454181189132e-13  1.001013942149677  8.883372314368723e-07  
4.213321743847289e-14  0.001013942149292398  1.712530698789131e-26  8.129170586963023e-13  1.001013942149699  9.007094858185193e-07  
4.331483223376394e-14  0.001013942149303648  1.809932520645225e-26  8.357103711146485e-13  1.001013942149722  9.132528595115145e-07  
4.45295850994266e-14  0.001013942149315466  1.912874213845655e-26  8.591427865798809e-13  1.001013942149745  9.259696997285351e-07  
4.577840538376616e-14  0.001013942149327399  2.021670869816093e-26  8.832322251001077e-13  1.001013942149769  9.388623855572973e-07  
4.706224849841272e-14  0.001013942149339883  2.136655501642202e-26  9.079971091202427e-13  1.001013942149794  9.519333283881045e-07  
4.838209664925957e-14  0.001013942149352464  2.258179789728416e-26  9.334910462648374e-13  1.001013942149819  9.651908541605409e-07  
4.973895958790057e-14  0.001013942149365576  2.386615829697967e-26  9.596650526804257e-13  1.001013942149845  9.786341709776019e-07  
5.113387538414331e-14  0.001013942149379208  2.52235685236449e-26  9.865729515112955e-13  1.001013942149872  9.922634321150693e-07  
5.256791122018419e-14  0.001013942149392908  2.665818343157641e-26  1.01423532051861e-12  1.0010139421499  1.006081188322891e-06  
5.404216420705904e-14  0.001013942149407107  2.817439419327686e-26  1.04267331443487e-12  1.001013942149928  1.020090024993176e-06  
5.555776222398878e-14  0.001013942149421796  2.977684174084767e-26  1.071908681157093e-12  1.001013942149958  1.034292562624891e-06  
5.711586478126424e-14  0.001013942149436742  3.147043004357765e-26  1.102005247761895e-12  1.001013942149988  1.048692995077e-06  
5.871766390733262e-14  0.001013942149452153  3.326033903196969e-26  1.132904117653215e-12  1.001013942150019  1.063300089394821e-06  
6.036438506075864e-14  0.001013942149468242  3.515205162335317e-26  1.164669357948921e-12  1.001013942150051  1.078109237307435e-06  
6.205728806776488e-14  0.001013942149484329  3.715135809962548e-26  1.197325260894117e-12  1.001013942150083  1.09312321074993e-06  
6.379766808606283e-14  0.001013942149501291  3.926437808016522e-26  1.230896799894897e-12  1.001013942150117  1.108344819306849e-06  
6.558685659571422e-14  0.001013942149518447  4.14975792539428e-26  1.265409648588274e-12  1.001013942150151  1.123776910717248e-06  
6.742622241778349e-14  0.00101394214953623  4.385779717713313e-26  1.300890200490954e-12  1.001013942150187  1.139422371386503e-06  
6.9317172761554e-14  0.001013942149554626  4.635225108096082e-26  1.33741646205442e-12  1.001013942150223  1.155290388049215e-06  
7.126115430111731e-14  0.001013942149573176  4.898857757085592e-26  1.374915879387352e-12  1.001013942150261  1.17138155851307e-06  
7.32596542821523e-14  0.001013942149592532  5.177484890679921e-26  1.413466736532731e-12  1.001013942150299  1.187695299654174e-06  
7.53142016597436e-14  0.001013942149612236  5.47195935036888e-26  1.453098514822094e-12  1.001013942150339  1.204234664688394e-06  
7.742636826811277e-14  0.001013942149632716  5.783182485265858e-26  1.493841522287351e-12  1.00101394215038  1.221002748298345e-06  
7.959777002314978e-14  0.001013942149653735  6.112106911143869e-26  1.535726916713419e-12  1.001013942150422  1.238002687189651e-06  
8.183006815867406e-14  0.001013942149675055  6.459739320900608e-26  1.578847589614564e-12  1.001013942150464  1.255238655823907e-06  
8.412497049736119e-14  0.001013942149697325  6.82714277389418e-26  1.623116304160951e-12  1.001013942150509  1.272722825291521e-06  
8.648423275731709e-14  0.001013942149720085  7.21544282043982e-26  1.668626258168585e-12  1.001013942150554  1.290448847814261e-06  
8.890965989529167e-14  0.001013942149743538  7.625827996229339e-26  1.71541225468273e-12  1.001013942150601  1.308420041363521e-06  
9.140310748756223e-14  0.001013942149767446  8.059554438075674e-26  1.7635100726274e-12  1.001013942150649  1.326639768977186e-06  
9.39664831495471e-14  0.001013942149792233  8.517949728955927e-26  1.81295649414866e-12  1.001013942150699  1.345111439364239e-06  
9.660174799522646e-14  0.001013942149817659  9.002416961767246e-26  1.863789332673282e-12  1.00101394215075  1.363838507517336e-06  
9.931091813749781e-14  0.001013942149843926  9.514438092451979e-26  1.916122134104143e-12  1.001013942150802  1.382831037234656e-06  
1.020960662306048e-13  0.001013942149870793  1.005558038760986e-25  1.969847424433082e-12  1.001013942150856  1.402091593835204e-06  
1.049593230558227e-13  0.001013942149898239  1.062750093077058e-25  2.025079100742529e-12  1.001013942150911  1.421618561938462e-06  
1.079028791516186e-13  0.001013942149926686  1.123195029744471e-25  2.081859400454433e-12  1.001013942150968  1.441415596205639e-06  
1.109289864895223e-13  0.001013942149955891  1.187077863184251e-25  2.140231745198075e-12  1.001013942151026  1.46148640093381e-06  
1.140399601970031e-13  0.001013942149986053  1.254594131019521e-25  2.200240774164611e-12  1.001013942151086  1.481834730721694e-06  
1.1723818032866e-13  0.001013942150016929  1.325950489278081e-25  2.262021721215371e-12  1.001013942151148  1.502464570488317e-06  
1.205260936870841e-13  0.001013942150048493  1.401365104101622e-25  2.325445361118268e-12  1.001013942151211  1.523392495812886e-06  
1.239062156947918e-13  0.001013942150081167  1.481069032960265e-25  2.390647310676209e-12  1.001013942151276  1.544609913139218e-06  
1.273811323186478e-13  0.001013942150114702  1.565306239295682e-25  2.457677431567004e-12  1.001013942151344  1.566120794037207e-06  
1.309535020482665e-13  0.001013942150149073  1.654334562628288e-25  2.526586983479696e-12  1.001013942151412  1.587929164021511e-06  
1.346260579298911e-13  0.001013942150184477  1.74842650780657e-25  2.597428663467556e-12  1.001013942151483  1.610039103275204e-06  
1.38401609657313e-13  0.001013942150220885  1.847870079149422e-25  2.670256646073286e-12  1.001013942151556  1.632454747383089e-06  
1.422830457214355e-13  0.001013942150258492  1.952969492119909e-25  2.745236261552601e-12  1.001013942151631  1.655187026525163e-06  
1.46273335620113e-13  0.001013942150296825  2.064046395533771e-25  2.822208294238636e-12  1.001013942151708  1.678241224968802e-06  
1.503755321299735e-13  0.001013942150336522  2.181440958923244e-25  2.901338508392108e-12  1.001013942151787  1.701614311276974e-06  
1.545927736419478e-13  0.001013942150377106  2.305512512212407e-25  2.982687416701497e-12  1.001013942151868  1.725310660033432e-06  
1.589282865622976e-13  0.001013942150418993  2.436640823198215e-25  3.066317228470246e-12  1.001013942151952  1.749334705236146e-06  
1.633853877809864e-13  0.001013942150461927  2.575227260025862e-25  3.152291897327873e-12  1.001013942152038  1.773690941094401e-06  
1.679674872092653e-13  0.001013942150506319  2.721696019786553e-25  3.240677170095423e-12  1.001013942152127  1.798383922836266e-06  
1.726780903884352e-13  0.001013942150551693  2.876494927236412e-25  3.331675188257365e-12  1.001013942152218  1.8234329042483e-06  
1.775208011717636e-13  0.001013942150598456  3.040098210747771e-25  3.425089774911013e-12  1.001013942152311  1.848829396505432e-06  
1.824993244816151e-13  0.001013942150646352  3.213006671745287e-25  3.521123560455308e-12  1.001013942152407  1.874577157296026e-06  
1.876174691439123e-13  0.001013942150695788  3.39574956165165e-25  3.619849983551064e-12  1.001013942152506  1.900681005111099e-06  
1.928791508020778e-13  0.001013942150746503  3.588886234535165e-25  3.721344542083156e-12  1.001013942152607  1.927145823879961e-06  
1.982883949127076e-13  0.001013942150798681  3.793007859303689e-25  3.825684850833704e-12  1.001013942152712  1.953976563848004e-06  
2.038493398252464e-13  0.001013942150852283  4.008738931037367e-25  3.933111721413295e-12  1.001013942152819  1.981184972704473e-06  
2.095662399480431e-13  0.001013942150907488  4.236739561375814e-25  4.043389261381091e-12  1.001013942152929  2.008780024700634e-06  
2.154434690031887e-13  0.001013942150964256  4.477708060345106e-25  4.15675880145593e-12  1.001013942153043  2.03675677744158e-06  
2.214855233726359e-13  0.001013942151022542  4.732382002504956e-25  4.273307036773842e-12  1.001013942153159  2.065120467249246e-06  
2.276970255381685e-13  0.001013942151082524  5.001540914020749e-25  4.393123093274276e-12  1.001013942153279  2.093876401564593e-06  
2.340827276178294e-13  0.001013942151143934  5.286008658809644e-25  4.516298595955969e-12  1.001013942153402  2.123029959901637e-06  
2.406475150015422e-13  0.00101394215120717  5.58665596040881e-25  4.642927738853532e-12  1.001013942153529  2.152586594814173e-06  
2.473964100886817e-13  0.001013942151272404  5.904402104207367e-25  4.773305001304197e-12  1.001013942153659  2.182567879704984e-06  
2.543345761304648e-13  0.001013942151339365  6.240220359233934e-25  4.907139703969782e-12  1.001013942153793  2.212966575406629e-06  
2.614673211801097e-13  0.001013942151408224  6.59513877496553e-25  5.04472689946881e-12  1.001013942153931  2.24378573072616e-06  
2.688001021537607e-13  0.001013942151478927  6.970243713463247e-25  5.186171801930466e-12  1.001013942154072  2.275031113337402e-06  
2.763385290053167e-13  0.001013942151551644  7.366683326702343e-25  5.331582575437926e-12  1.001013942154217  2.306708569244049e-06  
2.840883690183307e-13  0.001013942151626317  7.78567107109085e-25  5.481070416889632e-12  1.001013942154367  2.338824023830293e-06  
2.920555512182745e-13  0.001013942151703335  8.228488918804594e-25  5.634986199208311e-12  1.001013942154521  2.371389940609656e-06  
3.002461709085555e-13  0.001013942151782195  8.69649158808373e-25  5.792980386783673e-12  1.001013942154679  2.404420231788612e-06  
3.086664943337275e-13  0.001013942151863501  9.19111259673347e-25  5.955404443084551e-12  1.001013942154841  2.437907409143375e-06  
3.173229634734973e-13  0.001013942151946971  9.713865918977105e-25  6.12238257417581e-12  1.001013942155008  2.47185774048562e-06  
3.262222009711673e-13  0.001013942152032983  1.026635164060524e-24  6.294042468834928e-12  1.00101394215518  2.506277578756663e-06  
3.353710152002929e-13  0.001013942152121028  1.085026085687824e-24  6.470515396227782e-12  1.001013942155356  2.541173363169533e-06  
3.447764054734471e-13  0.001013942152211705  1.146738084902525e-24  6.651936305851168e-12  1.001013942155538  2.576551620366088e-06  
3.544455673970436e-13  0.001013942152305167  1.211959871424979e-24  6.838734342612737e-12  1.001013942155724  2.612436410521232e-06  
3.64385898376354e-13  0.00101394215240112  1.280891189726625e-24  7.030478749030328e-12  1.001013942155916  2.648822565045351e-06  
3.746050032748997e-13  0.001013942152499713  1.353743079566478e-24  7.227599301829357e-12  1.001013942156114  2.685711999173086e-06  
3.851107002325569e-13  0.00101394215260087  1.430738531852999e-24  7.430246738959994e-12  1.001013942156316  2.723111616738234e-06  
3.959110266468467e-13  0.00101394215270518  1.51211322074308e-24  7.6385760246088e-12  1.001013942156525  2.761028415335588e-06  
4.070142453219439e-13  0.00101394215281234  1.598116225047824e-24  7.852746468060858e-12  1.001013942156739  2.799469487578735e-06  
4.184288507901576e-13  0.001013942152922271  1.689010710978187e-24  8.073269484527048e-12  1.001013942156959  2.83844783940959e-06  
4.3016357581068e-13  0.001013942153035552  1.785074698826357e-24  8.299627080902251e-12  1.001013942157185  2.877983917298972e-06  
4.422273980505897e-13  0.001013942153152099  1.886602468063369e-24  8.532331290054578e-12  1.001013942157418  2.918066876424933e-06  
4.546295469532409e-13  0.00101394215327182  1.993904782933067e-24  8.771560059560085e-12  1.001013942157658  2.95870421927928e-06  
4.673795107992464e-13  0.001013942153394847  2.10731008328765e-24  9.01749632599125e-12  1.001013942157904  2.999903550254275e-06  
4.804870439655124e-13  0.001013942153521086  2.227165489955001e-24  9.270328155413063e-12  1.001013942158156  3.041672577009684e-06  
4.939621743878326e-13  0.001013942153651107  2.353837867287539e-24  9.530248886858754e-12  1.001013942158416  3.084019111857893e-06  
5.078152112327671e-13  0.001013942153784587  2.487714597733051e-24  9.797884135051216e-12  1.001013942158683  3.126969844827256e-06  
5.220567527846986e-13  0.001013942153922092  2.629205614328541e-24  1.007259547540199e-11  1.001013942158958  3.170522773596024e-06  
5.366976945540476e-13  0.001013942154063292  2.778744145012889e-24  1.035500914557518e-11  1.001013942159241  3.214678115404757e-06  
5.517492376129118e-13  0.001013942154208526  2.936787909620366e-24  1.064534110420333e-11  1.001013942159531  3.259444134056375e-06  
5.672228971644549e-13  0.001013942154357902  3.103820662138799e-24  1.094381336468224e-11  1.00101394215983  3.304829205586094e-06  
