# PlotEOS table
# Tabulated(filename=GShenFSU21app_ColdTable-TPR0.01-smooth.dat;)
# slice Temp = 0, global minimum enthalpy = 1.003194847361579
# Units are geometric, with Msun=1.
# Conversion to cgs: rhoscale=6.177e17, Energypermassscale=8.989e20, Pscale=5.552e38
# [1] rho
# [2] eps, specific energy (E/rho)
# [3] P
# [4] dP/drho
# [5] h, specific enthalpy (1+eps+P/rho)
# [6] cs, adiabatic relativistic sound speed (nonrelcs/sqrt(h))
1e-14  0.003194847361806673  3.370318317716037e-27  6.74064620841376e-13  1.003194847362144  8.184083316170106e-07  
1.056934553557987e-14  0.003194847361825898  3.765018480846009e-27  7.124409089881796e-13  1.003194847362182  8.413838751811528e-07  
1.117110650504822e-14  0.003194847361846251  4.205942261942361e-27  7.530020561070527e-13  1.003194847362223  8.65003786080775e-07  
1.180712846666191e-14  0.003194847361867447  4.698502945267242e-27  7.958724514287092e-13  1.003194847362265  8.89286117133912e-07  
1.247936205471311e-14  0.003194847361890088  5.248747769495272e-27  8.411835659294583e-13  1.003194847362311  9.14249426365371e-07  
1.318986896198669e-14  0.003194847361914103  5.863432157142316e-27  8.890878644059536e-13  1.003194847362359  9.399130465322667e-07  
1.394082826282576e-14  0.00319484736193942  6.55010236248103e-27  9.397059687752546e-13  1.003194847362409  9.663019994105996e-07  
1.473454309619837e-14  0.003194847361966182  7.317188989710614e-27  9.932058877980732e-13  1.003194847362463  9.934311216647256e-07  
1.557344772926135e-14  0.003194847361994529  8.174109667324269e-27  1.049751689921004e-12  1.003194847362519  1.021321152236312e-06  
1.64601150230855e-14  0.003194847362024376  9.131384930227037e-27  1.109516784383842e-12  1.003194847362579  1.049993410507644e-06  
1.739726432343799e-14  0.003194847362056074  1.02007673821161e-26  1.172684452940984e-12  1.003194847362642  1.079469812527582e-06  
1.838776980082331e-14  0.003194847362089304  1.139538598422777e-26  1.239448412033859e-12  1.003194847362709  1.109772887690564e-06  
1.943466926536022e-14  0.00319484736212463  1.272990724187403e-26  1.310013406758219e-12  1.00319484736278  1.140925795881175e-06  
2.054117348353064e-14  0.003194847362161944  1.422071526770111e-26  1.384595838811205e-12  1.003194847362854  1.172952345097451e-06  
2.171067602537263e-14  0.003194847362201354  1.58861123200217e-26  1.463447326284691e-12  1.003194847362933  1.205882299963429e-06  
2.294676367231941e-14  0.003194847362242961  1.774654492804137e-26  1.546765131130996e-12  1.003194847363016  1.239737983790806e-06  
2.425322741760355e-14  0.003194847362287081  1.982485409529557e-26  1.634826420081326e-12  1.003194847363104  1.27454324908567e-06  
2.563407409296515e-14  0.003194847362333578  2.214655551379059e-26  1.727901250437162e-12  1.003194847363198  1.310324701802148e-06  
2.709353865732049e-14  0.003194847362382756  2.474015304003261e-26  1.826275054410054e-12  1.003194847363296  1.347109692524397e-06  
2.86360971850811e-14  0.003194847362434905  2.763748864178234e-26  1.930249514402172e-12  1.0031948473634  1.384926337281943e-06  
3.026648059395696e-14  0.003194847362489646  3.087413332747211e-26  2.040143488299458e-12  1.00319484736351  1.423803538946144e-06  
3.198968915434538e-14  0.00319484736254792  3.448982385777235e-26  2.156293987143161e-12  1.003194847363626  1.463771009223952e-06  
3.381100782480682e-14  0.003194847362609104  3.852894977073501e-26  2.279093930536799e-12  1.003194847363749  1.504862877718708e-06  
3.573602246065781e-14  0.003194847362674121  4.304109920119227e-26  2.408848456398592e-12  1.003194847363879  1.54711294468684e-06  
3.777063694539372e-14  0.00319484736274255  4.808166959024508e-26  2.545990212800806e-12  1.003194847364016  1.590548049146027e-06  
3.992109129748053e-14  0.003194847362815068  5.371254472458114e-26  2.690939770972734e-12  1.003194847364161  1.635201394531409e-06  
4.219398080805024e-14  0.003194847362891675  6.000285565425275e-26  2.844141645989844e-12  1.003194847364314  1.681107113564053e-06  
4.459627626819086e-14  0.003194847362972581  6.702982942656109e-26  3.006065660153091e-12  1.003194847364476  1.728300294228406e-06  
4.713534534786917e-14  0.003194847363058202  7.487973721608433e-26  3.177208383620218e-12  1.003194847364647  1.776817006475062e-06  
4.981897519205165e-14  0.003194847363148722  8.364895349124384e-26  3.358094657315819e-12  1.003194847364828  1.826694329668902e-06  
5.265539630332755e-14  0.003194847363244306  9.34451388901143e-26  3.549338121783542e-12  1.003194847365019  1.877971095270727e-06  
5.56533077842764e-14  0.003194847363345327  1.043885573135786e-25  3.751410621080974e-12  1.003194847365221  1.930696895152173e-06  
5.882190401699968e-14  0.003194847363452142  1.166135670663839e-25  3.964987569628255e-12  1.003194847365435  1.984901571547911e-06  
6.217090286163834e-14  0.00319484736356509  1.302702563002367e-25  4.190723940043943e-12  1.00319484736566  2.040626561348249e-06  
6.571057546036271e-14  0.003194847363684267  1.455262901194935e-25  4.429311993686044e-12  1.003194847365899  2.09791446117671e-06  
6.94517777382369e-14  0.00319484736381042  1.625689690350282e-25  4.681483403627703e-12  1.003194847366151  2.156809059809899e-06  
7.340598369757196e-14  0.003194847363943604  1.81607528485616e-25  4.948011498652551e-12  1.003194847366418  2.217355371502447e-06  
7.758532060787844e-14  0.003194847364084521  2.028757076588886e-25  5.229713634373e-12  1.003194847366699  2.27959967024231e-06  
8.20026061993413e-14  0.003194847364233407  2.266346191496402e-25  5.527453700155317e-12  1.003194847366997  2.343589524962362e-06  
8.667138797389224e-14  0.003194847364390691  2.531759437445134e-25  5.842244774988656e-12  1.003194847367312  2.409384668324628e-06  
9.160598475443691e-14  0.003194847364557002  2.828255373170986e-25  6.174857643984034e-12  1.003194847367644  2.4770291861649e-06  
9.682153059967096e-14  0.00319484736473294  3.159474155875243e-25  6.526406896812552e-12  1.003194847367996  2.546570990981301e-06  
1.023340212191642e-13  0.003194847364918632  3.529482205378063e-25  6.897970620122743e-12  1.003194847368368  2.618063242091544e-06  
1.081603630310709e-13  0.003194847365115063  3.942822163480342e-25  7.290688277833836e-12  1.00319484736876  2.691560586600748e-06  
1.143184250129148e-13  0.00319484736532274  4.404568664788176e-25  7.705764205551236e-12  1.003194847369176  2.767119200990835e-06  
1.208270935044778e-13  0.003194847365541916  4.920390638912761e-25  8.144471303838643e-12  1.003194847369614  2.844796833871138e-06  
1.277063301308645e-13  0.003194847365773692  5.49662090895908e-25  8.608154941628004e-12  1.003194847370078  2.924652849922368e-06  
1.349772330233942e-13  0.003194847366018914  6.140333789187627e-25  9.098397687438667e-12  1.003194847370568  3.006755767965789e-06  
1.426621015260736e-13  0.00319484736627794  6.859432110186197e-25  9.616390483981598e-12  1.003194847371086  3.091172477321076e-06  
1.507845045861054e-13  0.003194847366551751  7.662744538943716e-25  1.016387371370718e-11  1.003194847371634  3.177956920552533e-06  
1.593693530381776e-13  0.003194847366841063  8.560133455702205e-25  1.074252632398021e-11  1.003194847372212  3.267175438899432e-06  
1.684429760042315e-13  0.003194847367146764  9.562616232714488e-25  1.135412284732954e-11  1.003194847372824  3.358896230334966e-06  
1.780332016430112e-13  0.003194847367470136  1.068250049650431e-24  1.200053884322967e-11  1.00319484737347  3.453189401469779e-06  
1.881694424970552e-13  0.003194847367811522  1.193353523082333e-24  1.268375665030809e-11  1.003194847374153  3.550127020904544e-06  
1.988827856988812e-13  0.003194847368172759  1.333107957544844e-24  1.340587146490395e-11  1.003194847374876  3.649783174072097e-06  
2.102060883130158e-13  0.003194847368554295  1.489229131882001e-24  1.416935580264866e-11  1.003194847375639  3.752235855069197e-06  
2.221740781062883e-13  0.003194847368957624  1.663633679396295e-24  1.497604899829437e-11  1.003194847376446  3.857583345939316e-06  
2.348234600554281e-13  0.003194847369384173  1.858462865308959e-24  1.582866889254847e-11  1.003194847377298  3.965885668251329e-06  
2.481930289186258e-13  0.003194847369834633  2.076108635071155e-24  1.672983017700917e-11  1.0031948473782  4.077225613880687e-06  
2.623237882163124e-13  0.003194847370310953  2.319243056976445e-24  1.768229640139409e-11  1.003194847379152  4.19168829187565e-06  
2.772590759860481e-13  0.003194847370814336  2.590851127625394e-24  1.868898844868371e-11  1.003194847380159  4.309361193232798e-06  
2.930446976972138e-13  0.003194847371346348  2.894267419273066e-24  1.975299349314294e-11  1.003194847381223  4.430334257480899e-06  
3.097290667331413e-13  0.003194847371908466  3.233217018989379e-24  2.087757446561822e-11  1.003194847382347  4.554699941123842e-06  
3.273633528715248e-13  0.003194847372502739  3.611861262251857e-24  2.206618006083084e-11  1.003194847383536  4.68255328799402e-06  
3.460016392185109e-13  0.00319484737313112  4.034848626185664e-24  2.332289398411377e-11  1.003194847384792  4.814014169340384e-06  
3.657010880777486e-13  0.003194847373795012  4.507372270894869e-24  2.465071672802582e-11  1.00319484738612  4.949169637354585e-06  
3.865221162631269e-13  0.003194847374497043  5.035233493458318e-24  2.605413501990068e-11  1.003194847387524  5.088115931108098e-06  
4.085285803928565e-13  0.003194847375238836  5.624912921734686e-24  2.753745264506607e-11  1.003194847389008  5.230959264159331e-06  
4.317879727332022e-13  0.003194847376022555  6.283650135734208e-24  2.910521840930334e-11  1.003194847390575  5.377808822698892e-06  
4.563716281924754e-13  0.003194847376851126  7.019532549272353e-24  3.076224008870428e-11  1.003194847392232  5.528776848646191e-06  
4.823549431001457e-13  0.003194847377726893  7.841594700659663e-24  3.251359917349913e-11  1.003194847393984  5.683978725065937e-06  
5.09817606442043e-13  0.003194847378652278  8.759929171424051e-24  3.436466644934951e-11  1.003194847395835  5.843533063969259e-06  
5.388438442608223e-13  0.003194847379630436  9.785810217472976e-24  3.632182396291264e-11  1.003194847397791  6.007577421089942e-06  
5.695226779712819e-13  0.003194847380664586  1.093183253271357e-23  3.838970116455226e-11  1.003194847399859  6.176244155317379e-06  
6.019481973827287e-13  0.00319484738175755  1.221206632933605e-23  4.057530648345958e-11  1.003194847402045  6.349641679708553e-06  
6.362198492657496e-13  0.00319484738291286  1.364222922110663e-23  4.288534237324201e-11  1.003194847404355  6.527902545609651e-06  
6.724427423484249e-13  0.003194847384133636  1.523987952573558e-23  4.532689286640741e-11  1.003194847406797  6.711163014162482e-06  
7.107279696773411e-13  0.003194847385423904  1.702463183159177e-23  4.790744529973143e-11  1.003194847409378  6.899563160008774e-06  
7.511929493320953e-13  0.003194847386787701  1.901839780968274e-23  5.063491327356286e-11  1.003194847412105  7.093246977889807e-06  
7.939617845382291e-13  0.003194847388228838  2.124565522740919e-23  5.351766091986523e-11  1.003194847414988  7.292362492222104e-06  
8.391656442830162e-13  0.003194847389752219  2.373374830717854e-23  5.656566371765272e-11  1.003194847418035  7.497066352115757e-06  
8.869431656014705e-13  0.003194847391362722  2.651322222595927e-23  5.978606052780191e-11  1.003194847421256  7.707553321575217e-06  
9.374408787662981e-13  0.003194847393064955  2.961820229096431e-23  6.318980025862508e-11  1.00319484742466  7.923944116514265e-06  
9.908136566858686e-13  0.003194847394863912  3.308680878738055e-23  6.678732090075216e-11  1.003194847428257  8.146404157035436e-06  
1.047225189888435e-12  0.0031948473967654  3.696162630160151e-23  7.058965469512178e-11  1.00319484743206  8.375103493003921e-06  
1.106848488549412e-12  0.003194847398774912  4.129022654012476e-23  7.460846195872882e-11  1.003194847436079  8.610216933470494e-06  
1.169866413101306e-12  0.00319484740089872  4.61257523764196e-23  7.885606684363898e-11  1.003194847440327  8.851924179707569e-06  
1.236472235053712e-12  0.003194847403143189  5.152757029611853e-23  8.334549513378516e-11  1.003194847444816  9.100409961959431e-06  
1.306870229743348e-12  0.003194847405515423  5.756199925097803e-23  8.809051418350564e-11  1.003194847449561  9.355864180009969e-06  
1.381276302832009e-12  0.003194847408023467  6.430312133513345e-23  9.310760831526096e-11  1.003194847454577  9.618527386403486e-06  
1.459918652473983e-12  0.003194847410674508  7.18336999093579e-23  9.840840257488686e-11  1.003194847459878  9.888571450747673e-06  
1.543038469183568e-12  0.00319484741347618  8.024618990505166e-23  1.0401097989962e-10  1.003194847465481  1.016618967754557e-05  
1.630890675549334e-12  0.003194847416437211  8.964387268580341e-23  1.09932521216333e-10  1.003194847471403  1.045159428396747e-05  
1.72374470806362e-12  0.003194847419566728  1.001421249913505e-22  1.161911855867423e-10  1.003194847477662  1.074500342656858e-05  
1.821885343465165e-12  0.003194847422874228  1.118698354397564e-22  1.228061658827887e-10  1.003194847484278  1.104664136731807e-05  
1.925613572129195e-12  0.003194847426369774  1.249709869179616e-22  1.297977476462762e-10  1.003194847491269  1.13567386442629e-05  
2.03524752118358e-12  0.003194847430064404  1.396064242879073e-22  1.371873712981673e-10  1.003194847498659  1.167553224695635e-05  
2.151123430182167e-12  0.003194847433969879  1.559558240182028e-22  1.450008118597447e-10  1.00319484750647  1.200329832077599e-05  
2.273596682327715e-12  0.003194847438098206  1.742199070216585e-22  1.53255972939476e-10  1.003194847514726  1.234029874926561e-05  
2.403042894406975e-12  0.003194847442461367  1.946229097703499e-22  1.619811132768637e-10  1.003194847523452  1.268675141214026e-05  
2.539859068780729e-12  0.003194847447073072  2.174153228984881e-22  1.712029893914848e-10  1.003194847532674  1.304292115008642e-05  
2.684464810961965e-12  0.003194847451946935  2.428769722317599e-22  1.809498810722801e-10  1.003194847542422  1.34090802160445e-05  
2.837303616516212e-12  0.003194847457097983  2.713204542629647e-22  1.912516781049186e-10  1.003194847552724  1.378550848241243e-05  
2.998844231231025e-12  0.00319484746254195  3.030949739597669e-22  2.021399719263929e-10  1.003194847563613  1.417249365403359e-05  
3.169582088726109e-12  0.003194847468295666  3.385906320237576e-22  2.136481524989341e-10  1.003194847575121  1.457033148713183e-05  
3.350040829913136e-12  0.003194847474376788  3.782432109040249e-22  2.258165294412927e-10  1.003194847587284  1.497933659889685e-05  
3.54077390896527e-12  0.003194847480806417  4.225395056017636e-22  2.386726564719053e-10  1.003194847600142  1.539989492379676e-05  
3.742366290721977e-12  0.003194847487601689  4.720233707939271e-22  2.522607015900536e-10  1.003194847613731  1.583224923636956e-05  
3.95543624473471e-12  0.00319484749478351  5.273023270975143e-22  2.666223337366519e-10  1.003194847628094  1.627673004984593e-05  
4.180637241455762e-12  0.003194847502374044  5.890550424381029e-22  2.818015940830146e-10  1.003194847643275  1.673367712782561e-05  
4.418659956385941e-12  0.003194847510396198  6.580396641884302e-22  2.978450311105304e-10  1.003194847659319  1.720343974286649e-05  
4.67023438832733e-12  0.003194847518874661  7.351031270918627e-22  3.14801843340518e-10  1.003194847676276  1.768637694229355e-05  
4.936132098237907e-12  0.003194847527835166  8.211915512506213e-22  3.327240301936423e-10  1.003194847694199  1.818285782142863e-05  
5.217168575554354e-12  0.003194847537305296  9.173618578333891e-22  3.516665514603026e-10  1.00319484771314  1.86932618044482e-05  
5.514205739240302e-12  0.003194847547317517  1.0247946811652e-21  3.716960591137034e-10  1.003194847733164  1.921807161293164e-05  
5.82815458123084e-12  0.003194847557900407  1.144809021347808e-21  3.92857319791443e-10  1.003194847754328  1.975762652489887e-05  
6.159977960380181e-12  0.003194847569085236  1.278878327231083e-21  4.152233191867058e-10  1.003194847776696  2.031231479849998e-05  
6.510693555481468e-12  0.003194847580906318  1.428648587535516e-21  4.388626442543757e-10  1.003194847800337  2.088256044859573e-05  
6.88137698641567e-12  0.003194847593399786  1.595958554297661e-21  4.638477866750892e-10  1.003194847825324  2.146879935706992e-05  
7.273165113001454e-12  0.003194847606603707  1.782862317594974e-21  4.902553650940769e-10  1.003194847851733  2.207147960455849e-05  
7.687259521663721e-12  0.003194847620558854  1.991654524023464e-21  5.181663601277641e-10  1.003194847879644  2.269106181143942e-05  
8.124930210614031e-12  0.003194847635307464  2.224898548544967e-21  5.47666362634001e-10  1.003194847909143  2.332801948834286e-05  
8.587519484845179e-12  0.003194847650897789  2.485457871734096e-21  5.788596543015257e-10  1.003194847940325  2.398290698930413e-05  
9.076446072885357e-12  0.003194847667379273  2.776531371814253e-21  6.118150167033728e-10  1.003194847973284  2.465624242345437e-05  
9.593209477938231e-12  0.003194847684798176  3.101692698413504e-21  6.466465677655251e-10  1.00319484800812  2.534846365291922e-05  
1.013939457675294e-11  0.003194847703207887  3.464933905317969e-21  6.834611204900249e-10  1.003194848044938  2.6060099835575e-05  
1.071667648032864e-11  0.003194847722664967  3.870714559588695e-21  7.223715688049046e-10  1.003194848083851  2.679169493914584e-05  
1.132682567136154e-11  0.003194847743228319  4.3240164925542e-21  7.634972337305597e-10  1.003194848124978  2.754380815520036e-05  
1.197171343418966e-11  0.00319484776496166  4.830404962776862e-21  8.069642292772745e-10  1.003194848168447  2.831701432470698e-05  
1.26533175938894e-11  0.003194847787930891  5.396096981879446e-21  8.529058491665564e-10  1.003194848214388  2.911190437546904e-05  
1.337372858212492e-11  0.003194847812207671  6.028037573905112e-21  9.01485286412153e-10  1.003194848262945  2.992911017408335e-05  
1.413515584835396e-11  0.003194847837875216  6.733984732023491e-21  9.52808122155299e-10  1.003194848314275  3.076939641563182e-05  
1.493993463605256e-11  0.003194847865002892  7.522605867377726e-21  1.007052822565496e-09  1.003194848368526  3.16332513289316e-05  
1.579053314474179e-11  0.003194847893673602  8.403582998569924e-21  1.064385731395899e-09  1.003194848425865  3.252133528713777e-05  
1.668956009978026e-11  0.003194847923975282  9.387732014817917e-21  1.124982662445253e-09  1.003194848486467  3.343432714584664e-05  
1.763977275314045e-11  0.00319484795600041  1.048713546481281e-20  1.189029438606816e-09  1.003194848550517  3.437292475976378e-05  
1.864408533970485e-11  0.003194847989847054  1.171529089665933e-20  1.25672246173213e-09  1.003194848618212  3.533784551379535e-05  
1.970557801501796e-11  0.00319484802561879  1.308727657011442e-20  1.328269314837665e-09  1.003194848689759  3.632982686896702e-05  
2.08275063019051e-11  0.00319484806342461  1.461993657557956e-20  1.403889398675214e-09  1.003194848765378  3.734962692358233e-05  
2.201331107493033e-11  0.003194848103395066  1.633208646958528e-20  1.483852754168973e-09  1.003194848845314  3.839821434658307e-05  
2.326662911331458e-11  0.003194848145642698  1.824474718190593e-20  1.568330401582171e-09  1.003194848929802  3.947625878829849e-05  
2.459130425468052e-11  0.003194848190293738  2.038140098140057e-20  1.657617439840697e-09  1.003194849019099  4.058454005616846e-05  
2.599139918382938e-11  0.003194848237484598  2.276827988964951e-20  1.751987669987465e-09  1.003194849113477  4.17239053417736e-05  
2.747120789270814e-11  0.003194848287359876  2.543468798642263e-20  1.851730480616056e-09  1.003194849213227  4.289522554726908e-05  
2.903526884977814e-11  0.003194848340071702  2.841336118196209e-20  1.957151735183381e-09  1.003194849318653  4.409939594818561e-05  
3.068837891917639e-11  0.003194848395781478  3.174086912271195e-20  2.068574709934233e-09  1.003194849430078  4.533733687473517e-05  
